TRIAL,BVP,BVPFLAG,TEMP,TEMPFLAG,EDA,EDAFLAG,FINALFLAG,,
1,119.10,0,36.34,0,0.146,0,0,,
2,-84.10,0,37.04,0,0.275,0,0,,
3,46.40,0,37.03,0,0.64,0,0,,
4,-21.30,0,36.67,0,0.216,0,0,,
5,106.80,0,36.21,0,0.423,0,0,,
6,-112.40,0,36.34,0,0.017,0,0,,
7,14.60,0,37,0,0.697,0,0,,* Change HR to BVP
8,98.10,0,37.02,0,0.082,0,0,,
9,134.80,0,36.33,0,0.664,0,0,,
10,-62.50,0,36.43,0,0.397,0,0,,
11,-40.50,0,36.56,0,0.499,0,0,,
12,88.90,0,36.11,0,0.646,0,0,,
13,68.50,0,36.28,0,0.531,0,0,,
14,35.10,0,36.12,0,0.491,0,0,,
15,-97.20,0,36.48,0,0.793,0,0,,
16,-87.40,0,36.72,0,0.154,0,0,,
17,115.40,0,36.73,0,0.024,0,0,,
18,-134.70,0,36.03,0,0.403,0,0,,
19,-33.50,0,36.67,0,0.294,0,0,,
20,28.10,0,36.51,0,0.329,0,0,,
21,87.60,0,36.17,0,0.446,0,0,,
22,-100.70,0,37.08,0,0.436,0,0,,
23,65.40,0,36.27,0,0.762,0,0,,
24,-56.90,0,36.6,0,0.262,0,0,,
25,-23.40,0,36.99,0,0.397,0,0,,
26,59.50,0,37.14,0,0.461,0,0,,
27,-126.20,0,36.33,0,0.416,0,0,,
28,63.80,0,36.61,0,0.758,0,0,,
29,-79.20,0,36.18,0,0.696,0,0,,
30,128.70,0,36.43,0,0.339,0,0,,
31,-82.30,0,36.58,0,0.193,0,0,,
32,-116.00,0,36.1,0,0.601,0,0,,
33,-108.60,0,36.96,0,0.61,0,0,,
34,16.90,0,36.91,0,0.731,0,0,,
35,-14.20,0,36.84,0,0.615,0,0,,
36,76.40,0,36.65,0,0.018,0,0,,
37,-26.10,0,36.49,0,0.577,0,0,,
38,-119.80,0,36.51,0,0.516,0,0,,
39,87.70,0,36,1,0.045,0,0,,
40,-97.50,0,36.25,0,0.203,0,0,,
41,10.50,0,36.97,0,0.772,0,0,,
42,28.00,0,37.03,0,0.372,0,0,,
43,38.80,0,36.13,0,0.204,0,0,,
44,128.00,0,36.24,0,0.476,0,0,,
45,131.40,0,36.46,0,0.531,0,0,,
46,76.30,0,36.41,0,0.329,0,0,,
47,16.80,0,36.67,0,0.377,0,0,,
48,32.60,0,36.79,0,0.036,0,0,,
49,125.00,0,36.43,0,0.452,0,0,,
50,-108.30,0,36.85,0,0.525,0,0,,
51,-57.90,0,36.48,0,0.174,0,0,,
52,-8.40,0,36.09,0,0.73,0,0,,
53,111.00,0,37.05,0,0.171,0,0,,
54,-120.50,0,36.24,0,0.018,0,0,,
55,-18.30,0,36.28,0,0.372,0,0,,
56,54.10,0,37.06,0,0.555,0,0,,
57,98.50,0,36.22,0,0.767,0,0,,
58,-65.00,0,36.28,0,0.033,0,0,,
59,-107.50,0,36.43,0,0.69,0,0,,
60,-79.00,0,36.51,0,0.351,0,0,,
61,49.90,0,36.09,0,0.433,0,0,,
62,144.70,0,37.08,0,0.551,0,0,,
63,29.60,0,36.35,0,0.415,0,0,,
64,-81.60,0,36.57,0,0.732,0,0,,
65,-96.00,0,36.8,0,0.706,0,0,,
66,90.90,0,36.11,0,0.065,0,0,,
67,27.90,0,37.14,0,0.665,0,0,,
68,128.70,0,36.29,0,0.201,0,0,,
69,-2.90,0,36.31,0,0.337,0,0,,
70,56.00,0,36.32,0,0.731,0,0,,
71,130.10,0,37.08,0,0.554,0,0,,
72,-90.40,0,36.04,0,0.628,0,0,,
73,24.40,0,36.65,0,0.609,0,0,,
74,46.50,0,36.57,0,0.462,0,0,,
75,-13.10,0,36.9,0,0.375,0,0,,
76,48.00,0,37.13,0,0.405,0,0,,
77,0.90,0,36.06,0,0.392,0,0,,
78,-139.50,0,36.96,0,0.438,0,0,,
79,92.70,0,36.37,0,0.194,0,0,,
80,111.60,0,36.98,0,0.722,0,0,,
81,-8.60,0,37.18,0,0.619,0,0,,
82,-13.50,0,36.84,0,0.058,0,0,,
83,-96.00,0,36.2,0,0.253,0,0,,
84,99.60,0,36.39,0,0.08,0,0,,
85,125.30,0,36.53,0,0.607,0,0,,
86,-38.30,0,36.21,0,0.454,0,0,,
87,97.30,0,36.34,0,0.593,0,0,,
88,-75.80,0,36.09,0,0.54,0,0,,
89,-76.40,0,36.85,0,0.057,0,0,,
90,-120.50,0,36.8,0,0.503,0,0,,
91,-61.00,0,36.13,0,0.573,0,0,,
92,-28.90,0,36.64,0,0.341,0,0,,
93,126.00,0,36.51,0,0.73,0,0,,
94,111.40,0,37.02,0,0.036,0,0,,
95,149.20,0,36.97,0,0.327,0,0,,
96,-64.70,0,36.01,0,0.741,0,0,,
97,124.20,0,36.19,0,0.695,0,0,,
98,-45.10,0,37.04,0,0.583,0,0,,
99,-33.60,0,37.2,1,0.481,0,0,,
100,47.20,0,36.81,0,0.354,0,0,,
101,133.40,0,36.89,0,0.722,0,0,,
102,-142.10,0,36.59,0,0.424,0,0,,
103,-22.70,0,36.55,0,0.341,0,0,,
104,1.90,0,36.69,0,0.102,0,0,,
105,129.30,0,36,1,0.136,0,0,,
106,-69.30,0,37.2,1,0.514,0,0,,
107,143.90,0,36.9,0,0.34,0,0,,
108,48.70,0,36.55,0,0.572,0,0,,
109,11.20,0,36.89,0,0.423,0,0,,
110,-15.90,0,36.29,0,0.445,0,0,,
111,22.10,0,36.27,0,0.583,0,0,,
112,-55.20,0,36.43,0,0.074,0,0,,
113,6.50,0,36.54,0,0.637,0,0,,
114,-54.20,0,36.37,0,0.252,0,0,,
115,25.60,0,36.63,0,0.768,0,0,,
116,-68.80,0,36.15,0,0.121,0,0,,
117,95.80,0,36.23,0,0.723,0,0,,
118,11.20,0,36.39,0,0.686,0,0,,
119,-114.30,0,36.12,0,0.63,0,0,,
120,23.30,0,36.5,0,0.649,0,0,,
121,71.40,0,36.45,0,0.757,0,0,,
122,29.40,0,37.19,0,0.43,0,0,,
123,-91.90,0,37.06,0,0.418,0,0,,
124,9.80,0,36.76,0,0.17,0,0,,
125,-74.60,0,36.65,0,0.28,0,0,,
126,101.60,0,36.28,0,0.203,0,0,,
127,61.40,0,37.06,0,0.039,0,0,,
128,51.40,0,37.16,0,0.182,0,0,,
129,-146.40,0,36.96,0,0.689,0,0,,
130,39.20,0,36.37,0,0.447,0,0,,
131,-141.10,0,36.95,0,0.015,0,0,,
132,-64.70,0,36.87,0,0.16,0,0,,
133,71.80,0,36.6,0,0.692,0,0,,
134,-22.90,0,36.23,0,0.311,0,0,,
135,-18.10,0,36.7,0,0.154,0,0,,
136,34.90,0,37.19,0,0.032,0,0,,
137,-100.70,0,36.22,0,0.169,0,0,,
138,-18.90,0,36.81,0,0.023,0,0,,
139,-30.30,0,36.79,0,0.568,0,0,,
140,-28.60,0,37.09,0,0.081,0,0,,
141,79.60,0,36.19,0,0.237,0,0,,
142,27.70,0,37.19,0,0.575,0,0,,
143,109.60,0,37.09,0,0.509,0,0,,
144,3.80,0,36.39,0,0.434,0,0,,
145,-89.70,0,37.14,0,0.642,0,0,,
146,80.90,0,36.2,0,0.452,0,0,,
147,-27.40,0,36.54,0,0.063,0,0,,
148,121.30,0,36.62,0,0.039,0,0,,
149,31.40,0,36.25,0,0.2,0,0,,
150,-66.30,0,37.11,0,0.288,0,0,,
151,144.10,0,36.92,0,0.203,0,0,,
152,39.70,0,36.49,0,0.34,0,0,,
153,147.30,0,36.13,0,0.251,0,0,,
154,48.90,0,37,0,0.587,0,0,,
155,69.50,0,36.89,0,0.354,0,0,,
156,2.50,0,36.73,0,0.75,0,0,,
157,117.50,0,36.86,0,0.522,0,0,,
158,51.60,0,36.17,0,0.231,0,0,,
159,124.30,0,36.21,0,0.285,0,0,,
160,21.30,0,36.66,0,0.684,0,0,,
161,-109.80,0,36.69,0,0.511,0,0,,
162,20.20,0,36.68,0,0.643,0,0,,
163,-39.40,0,36.35,0,0.604,0,0,,
164,-85.60,0,36.84,0,0.627,0,0,,
165,146.30,0,36.47,0,0.118,0,0,,
166,-35.10,0,37.11,0,0.369,0,0,,
167,132.20,0,37.19,0,0.021,0,0,,
168,-140.60,0,36.51,0,0.267,0,0,,
169,-139.60,0,36.56,0,0.013,0,0,,
170,133.30,0,36.66,0,0.746,0,0,,
171,35.20,0,36.79,0,0.191,0,0,,
172,86.60,0,36.7,0,0.756,0,0,,
173,-127.20,0,37.05,0,0.504,0,0,,
174,116.70,0,36.13,0,0.064,0,0,,
175,52.00,0,36.13,0,0.483,0,0,,
176,-92.80,0,37.11,0,0.559,0,0,,
177,23.10,0,36.12,0,0.487,0,0,,
178,-92.80,0,36.94,0,0.662,0,0,,
179,-132.30,0,36.87,0,0.266,0,0,,
180,-1.10,0,36.13,0,0.228,0,0,,
181,-91.20,0,36.93,0,0.212,0,0,,
182,-93.30,0,36.19,0,0.676,0,0,,
183,125.70,0,36.84,0,0.278,0,0,,
184,-54.30,0,36.51,0,0.024,0,0,,
185,127.80,0,36.44,0,0.645,0,0,,
186,98.20,0,36.7,0,0.116,0,0,,
187,-87.00,0,37.18,0,0.711,0,0,,
188,-14.10,0,36.38,0,0.222,0,0,,
189,108.90,0,36.93,0,0.441,0,0,,
190,7.80,0,36.45,0,0.747,0,0,,
191,-101.10,0,36.62,0,0.771,0,0,,
192,-128.00,0,36.2,0,0.575,0,0,,
193,-68.00,0,37.08,0,0.178,0,0,,
194,-61.20,0,36.84,0,0.254,0,0,,
195,-75.40,0,36.17,0,0.326,0,0,,
196,111.50,0,36.81,0,0.138,0,0,,
197,52.90,0,36.13,0,0.001,0,0,,
198,-90.90,0,36.98,0,0.73,0,0,,
199,141.90,0,36.8,0,0.357,0,0,,
200,-104.30,0,36.35,0,0.228,0,0,,
201,-26.10,0,36.07,0,0.731,0,0,,
202,-121.30,0,36.8,0,0.784,0,0,,
203,-28.10,0,36.33,0,0.364,0,0,,
204,118.60,0,36.68,0,0.463,0,0,,
205,126.60,0,36.86,0,0.076,0,0,,
206,-7.10,0,37.18,0,0.33,0,0,,
207,92.80,0,37.19,0,0.312,0,0,,
208,-26.80,0,36.47,0,0.775,0,0,,
209,-49.60,0,36.93,0,0.205,0,0,,
210,-60.20,0,36.47,0,0.522,0,0,,
211,42.20,0,36.98,0,0.534,0,0,,
212,-127.70,0,36.67,0,0.347,0,0,,
213,4.10,0,36.45,0,0.175,0,0,,
214,-99.00,0,36.83,0,0.473,0,0,,
215,-81.80,0,36.57,0,0.012,0,0,,
216,48.60,0,36.88,0,0.301,0,0,,
217,-89.50,0,36.74,0,0.351,0,0,,
218,132.50,0,36.47,0,0.394,0,0,,
219,-117.00,0,36.57,0,0.524,0,0,,
220,-121.20,0,37.13,0,0.254,0,0,,
221,120.80,0,36.37,0,0.715,0,0,,
222,-143.40,0,36.25,0,0.265,0,0,,
223,115.60,0,36.4,0,0.463,0,0,,
224,124.20,0,37.09,0,0.208,0,0,,
225,-57.40,0,36.36,0,0.461,0,0,,
226,-147.70,0,36.82,0,0.762,0,0,,
227,144.10,0,36.88,0,0.494,0,0,,
228,-110.30,0,36.85,0,0.212,0,0,,
229,42.60,0,36.37,0,0.065,0,0,,
230,-35.30,0,36.3,0,0.592,0,0,,
231,100.10,0,36.73,0,0.58,0,0,,
232,57.70,0,36.31,0,0.624,0,0,,
233,-93.10,0,37.02,0,0.184,0,0,,
234,58.00,0,36.38,0,0.716,0,0,,
235,51.10,0,36.55,0,0.737,0,0,,
236,144.90,0,37.14,0,0.723,0,0,,
237,139.10,0,36.5,0,0.602,0,0,,
238,-119.00,0,37.12,0,0.74,0,0,,
239,-34.10,0,36.25,0,0.167,0,0,,
240,-140.20,0,37.15,0,0.251,0,0,,
241,8.70,0,36.94,0,0.754,0,0,,
242,-114.40,0,36.07,0,0.291,0,0,,
243,67.80,0,36.43,0,0.379,0,0,,
244,-16.30,0,36.1,0,0.213,0,0,,
245,62.00,0,37.04,0,0.229,0,0,,
246,47.50,0,36.1,0,0.74,0,0,,
247,-129.10,0,36.8,0,0.005,0,0,,
248,74.40,0,36.6,0,0.571,0,0,,
249,51.10,0,36.71,0,0.662,0,0,,
250,13.70,0,36.58,0,0.049,0,0,,
251,-16.00,0,37.1,0,0.085,0,0,,
252,36.60,0,36.99,0,0.233,0,0,,
253,-63.60,0,36.65,0,0.727,0,0,,
254,134.90,0,36.51,0,0.365,0,0,,
255,25.60,0,37.04,0,0.111,0,0,,
256,149.40,0,36.22,0,0.776,0,0,,
257,-10.20,0,36.9,0,0.781,0,0,,
258,135.50,0,37.03,0,0.465,0,0,,
259,-131.60,0,36.24,0,0.675,0,0,,
260,-27.20,0,36.6,0,0.111,0,0,,
261,51.00,0,36.95,0,0.663,0,0,,
262,33.30,0,36.86,0,0.102,0,0,,
263,-44.90,0,37.01,0,0.208,0,0,,
264,-13.70,0,36.16,0,0.483,0,0,,
265,-68.70,0,36.56,0,0.586,0,0,,
266,32.20,0,36.54,0,0.366,0,0,,
267,34.60,0,36.98,0,0.383,0,0,,
268,104.30,0,37.19,0,0.212,0,0,,
269,42.70,0,37.04,0,0.058,0,0,,
270,-134.00,0,36.06,0,0.104,0,0,,
271,20.60,0,36.14,0,0.213,0,0,,
272,59.40,0,36.65,0,0.718,0,0,,
273,15.20,0,36.63,0,0.781,0,0,,
274,-140.00,0,36.35,0,0.742,0,0,,
275,-67.50,0,36.18,0,0.406,0,0,,
276,43.30,0,36.53,0,0.568,0,0,,
277,-24.90,0,37.19,0,0.1,0,0,,
278,-16.20,0,36.46,0,0.145,0,0,,
279,-3.20,0,37.09,0,0.242,0,0,,
280,-129.40,0,36.96,0,0.345,0,0,,
281,-144.50,0,37.2,1,0.012,0,0,,
282,-41.40,0,37.15,0,0.105,0,0,,
283,-3.30,0,36.17,0,0.542,0,0,,
284,-113.40,0,36.72,0,0.689,0,0,,
285,25.40,0,36.72,0,0.184,0,0,,
286,-127.90,0,37.04,0,0.033,0,0,,
287,-145.10,0,36.89,0,0.66,0,0,,
288,11.50,0,36.84,0,0.083,0,0,,
289,-30.50,0,36.36,0,0.127,0,0,,
290,-22.30,0,36.65,0,0.674,0,0,,
291,59.10,0,36.75,0,0.621,0,0,,
292,-43.90,0,36.44,0,0.43,0,0,,
293,-77.40,0,36.35,0,0.03,0,0,,
294,121.40,0,36.29,0,0.758,0,0,,
295,129.70,0,36.03,0,0.461,0,0,,
296,39.80,0,36.36,0,0.12,0,0,,
297,-128.30,0,36.01,0,0.352,0,0,,
298,-14.90,0,36.27,0,0.153,0,0,,
299,-72.80,0,36.65,0,0.725,0,0,,
300,-26.70,0,37.15,0,0.12,0,0,,
301,-100.50,0,37.03,0,0.637,0,0,,
302,-111.60,0,36.8,0,0.083,0,0,,
303,55.70,0,36.79,0,0.226,0,0,,
304,-99.40,0,37,0,0.079,0,0,,
305,55.70,0,37.16,0,0.586,0,0,,
306,-113.90,0,36.39,0,0.591,0,0,,
307,142.30,0,36.45,0,0.308,0,0,,
308,79.30,0,36.96,0,0.431,0,0,,
309,40.70,0,36.26,0,0.068,0,0,,
310,38.60,0,36.67,0,0.694,0,0,,
311,73.80,0,36.99,0,0.387,0,0,,
312,-38.50,0,36.08,0,0.565,0,0,,
313,7.80,0,36.51,0,0.372,0,0,,
314,-128.80,0,36.64,0,0.719,0,0,,
315,-129.00,0,36.41,0,0.371,0,0,,
316,93.40,0,36.34,0,0.742,0,0,,
317,40.20,0,36.48,0,0.595,0,0,,
318,63.50,0,36.8,0,0.699,0,0,,
319,-120.00,0,36.56,0,0.657,0,0,,
320,143.10,0,37.04,0,0.61,0,0,,
321,-100.40,0,36.76,0,0.124,0,0,,
322,-139.70,0,36.98,0,0.2,0,0,,
323,67.10,0,36.8,0,0.486,0,0,,
324,31.80,0,37.08,0,0.603,0,0,,
325,-110.60,0,36.88,0,0.65,0,0,,
326,-108.70,0,36.42,0,0.087,0,0,,
327,-134.70,0,37.07,0,0.798,0,0,,
328,50.60,0,36.39,0,0.618,0,0,,
329,-61.40,0,36.63,0,0.336,0,0,,
330,131.10,0,37.15,0,0.703,0,0,,
331,-120.20,0,36.99,0,0.423,0,0,,
332,99.30,0,36.81,0,0.355,0,0,,
333,68.10,0,36.35,0,0.485,0,0,,
334,30.70,0,36.61,0,0.664,0,0,,
335,118.40,0,36.19,0,0.644,0,0,,
336,40.80,0,36.54,0,0.103,0,0,,
337,105.40,0,36.2,0,0.582,0,0,,
338,-74.60,0,36.49,0,0.277,0,0,,
339,87.80,0,36.8,0,0.052,0,0,,
340,72.80,0,37.15,0,0.01,0,0,,
341,113.00,0,36.13,0,0.137,0,0,,
342,20.10,0,36.61,0,0.134,0,0,,
343,-40.80,0,36.3,0,0.367,0,0,,
344,-129.90,0,36.91,0,0.169,0,0,,
345,51.50,0,36.75,0,0.123,0,0,,
346,-140.90,0,36.52,0,0.775,0,0,,
347,-12.20,0,36.32,0,0.331,0,0,,
348,-100.10,0,36,1,0.139,0,0,,
349,-24.50,0,36.01,0,0.202,0,0,,
350,-100.60,0,36.82,0,0.761,0,0,,
351,80.80,0,36.29,0,0.467,0,0,,
352,-95.40,0,36.04,0,0.513,0,0,,
353,-137.70,0,36.7,0,0.19,0,0,,
354,137.10,0,36.18,0,0.348,0,0,,
355,136.30,0,37.02,0,0.527,0,0,,
356,-45.10,0,36.11,0,0.755,0,0,,
357,113.20,0,36.01,0,0.257,0,0,,
358,11.80,0,36.64,0,0.736,0,0,,
359,58.60,0,37.05,0,0.269,0,0,,
360,29.50,0,36.12,0,0.35,0,0,,
361,6.00,0,37.17,0,0.741,0,0,,
362,-90.10,0,36.46,0,0.106,0,0,,
363,105.50,0,36.18,0,0.669,0,0,,
364,-141.30,0,36.01,0,0.418,0,0,,
365,39.70,0,36.02,0,0.755,0,0,,
366,52.00,0,36.73,0,0.465,0,0,,
367,34.10,0,36.47,0,0.338,0,0,,
368,-4.30,0,36.47,0,0.519,0,0,,
369,-98.50,0,36.86,0,0.448,0,0,,
370,62.80,0,37.01,0,0.778,0,0,,
371,-23.50,0,36.3,0,0.66,0,0,,
372,-5.10,0,36.57,0,0.453,0,0,,
373,25.40,0,36.9,0,0.311,0,0,,
374,147.30,0,36.47,0,0.026,0,0,,
375,45.40,0,36.52,0,0.279,0,0,,
376,53.30,0,36.58,0,0.336,0,0,,
377,-141.50,0,36.48,0,0.589,0,0,,
378,129.60,0,36.95,0,0.691,0,0,,
379,-16.90,0,36.67,0,0.212,0,0,,
380,72.70,0,36.64,0,0.444,0,0,,
381,-89.70,0,36.12,0,0.67,0,0,,
382,-34.10,0,36.47,0,0.49,0,0,,
383,-6.50,0,36.36,0,0.195,0,0,,
384,6.70,0,36.51,0,0.146,0,0,,
385,42.50,0,36.09,0,0.443,0,0,,
386,-119.70,0,36.41,0,0.049,0,0,,
387,16.60,0,36.26,0,0.003,0,0,,
388,36.80,0,36.97,0,0.608,0,0,,
389,-3.30,0,36.31,0,0.136,0,0,,
390,-146.20,0,37.17,0,0.169,0,0,,
391,-67.70,0,36.46,0,0.607,0,0,,
392,-81.90,0,36.22,0,0.689,0,0,,
393,87.30,0,36.86,0,0.28,0,0,,
394,96.50,0,36.81,0,0.271,0,0,,
395,-98.60,0,36.75,0,0.271,0,0,,
396,28.20,0,36.58,0,0.11,0,0,,
397,40.00,0,36.13,0,0.47,0,0,,
398,10.60,0,36.42,0,0.457,0,0,,
399,-50.10,0,36.47,0,0.258,0,0,,
400,-88.80,0,36.09,0,0.268,0,0,,
401,125.10,0,36.5,0,0.365,0,0,,
402,113.40,0,37.15,0,0.594,0,0,,
403,60.50,0,37.09,0,0.4,0,0,,
404,-77.60,0,36.83,0,0.36,0,0,,
405,115.60,0,36.47,0,0.407,0,0,,
406,56.80,0,36.44,0,0.572,0,0,,
407,-146.00,0,36.75,0,0.538,0,0,,
408,-52.70,0,36.92,0,0.471,0,0,,
409,74.40,0,36.27,0,0.023,0,0,,
410,7.00,0,36.57,0,0.552,0,0,,
411,-100.10,0,36.21,0,0.434,0,0,,
412,-88.20,0,36.78,0,0.169,0,0,,
413,-8.00,0,36.15,0,0.487,0,0,,
414,116.10,0,36.52,0,0.675,0,0,,
415,-60.00,0,36.96,0,0.738,0,0,,
416,-45.90,0,36.56,0,0.699,0,0,,
417,-89.90,0,36.96,0,0.371,0,0,,
418,-110.60,0,37.12,0,0.069,0,0,,
419,103.00,0,36.38,0,0.345,0,0,,
420,54.00,0,36.79,0,0.329,0,0,,
421,121.20,0,36.5,0,0.342,0,0,,
422,18.00,0,36.37,0,0.793,0,0,,
423,82.30,0,36.03,0,0.071,0,0,,
424,83.80,0,37.2,1,0.49,0,0,,
425,-103.70,0,36.75,0,0.136,0,0,,
426,-94.40,0,37.2,1,0.179,0,0,,
427,84.10,0,36.8,0,0.088,0,0,,
428,-68.50,0,36.06,0,0.291,0,0,,
429,-61.50,0,36.76,0,0.449,0,0,,
430,-91.30,0,36.35,0,0.759,0,0,,
431,13.60,0,36.56,0,0.008,0,0,,
432,-145.20,0,37.08,0,0.196,0,0,,
433,-127.40,0,36.3,0,0.026,0,0,,
434,95.20,0,36.63,0,0.438,0,0,,
435,-128.30,0,36.34,0,0.78,0,0,,
436,72.80,0,36.29,0,0.191,0,0,,
437,-147.80,0,36.81,0,0.39,0,0,,
438,102.30,0,37.04,0,0.773,0,0,,
439,81.60,0,37.09,0,0.108,0,0,,
440,-116.70,0,36.97,0,0.081,0,0,,
441,79.80,0,37.02,0,0.787,0,0,,
442,-99.40,0,36.04,0,0.124,0,0,,
443,-66.50,0,37.09,0,0.359,0,0,,
444,32.90,0,36.58,0,0.542,0,0,,
445,-8.60,0,37.09,0,0.309,0,0,,
446,-127.20,0,37.07,0,0.162,0,0,,
447,34.70,0,36.43,0,0.166,0,0,,
448,-23.00,0,36.4,0,0.776,0,0,,
449,-105.60,0,36.84,0,0.584,0,0,,
450,3.60,0,36.73,0,0.228,0,0,,
451,-26.30,0,36.26,0,0.632,0,0,,
452,-132.70,0,36.61,0,0.733,0,0,,
453,72.80,0,36.63,0,0.457,0,0,,
454,77.20,0,36.87,0,0.153,0,0,,
455,86.70,0,36.08,0,0.692,0,0,,
456,130.20,0,36.56,0,0.124,0,0,,
457,134.10,0,36.25,0,0.324,0,0,,
458,-107.00,0,36.32,0,0.201,0,0,,
459,-66.40,0,36.96,0,0.051,0,0,,
460,47.00,0,36.26,0,0.274,0,0,,
461,51.50,0,37.1,0,0.362,0,0,,
462,142.30,0,36.9,0,0.033,0,0,,
463,32.40,0,36.62,0,0.285,0,0,,
464,101.00,0,36.49,0,0.777,0,0,,
465,-119.90,0,36.13,0,0.08,0,0,,
466,-9.30,0,36.04,0,0.109,0,0,,
467,101.60,0,36.63,0,0.606,0,0,,
468,-113.40,0,36,1,0.005,0,0,,
469,-87.40,0,36.31,0,0.023,0,0,,
470,-52.80,0,36.65,0,0.561,0,0,,
471,-104.30,0,36.87,0,0.042,0,0,,
472,93.50,0,36.57,0,0.317,0,0,,
473,-89.10,0,36.32,0,0.309,0,0,,
474,-46.60,0,36.21,0,0.329,0,0,,
475,-91.00,0,36.65,0,0.076,0,0,,
476,4.90,0,36.81,0,0.631,0,0,,
477,-50.40,0,36.21,0,0.163,0,0,,
478,89.90,0,36.66,0,0.739,0,0,,
479,100.30,0,36.37,0,0.192,0,0,,
480,84.00,0,36.87,0,0.101,0,0,,
481,139.30,0,36.68,0,0.718,0,0,,
482,82.50,0,36.36,0,0.325,0,0,,
483,-113.10,0,36.2,0,0.728,0,0,,
484,-125.50,0,36.08,0,0.379,0,0,,
485,17.60,0,36.88,0,0.419,0,0,,
486,-112.30,0,36.18,0,0.02,0,0,,
487,115.00,0,36.62,0,0.011,0,0,,
488,-29.70,0,36.33,0,0.744,0,0,,
489,27.20,0,36.82,0,0.587,0,0,,
490,104.70,0,36.94,0,0.31,0,0,,
491,100.50,0,36.74,0,0.68,0,0,,
492,70.70,0,37.1,0,0.014,0,0,,
493,-128.70,0,37.03,0,0.304,0,0,,
494,59.60,0,36.48,0,0.02,0,0,,
495,5.30,0,36.77,0,0.785,0,0,,
496,83.60,0,36.34,0,0.068,0,0,,
497,134.10,0,37.11,0,0.634,0,0,,
498,103.30,0,36.99,0,0.754,0,0,,
499,53.10,0,36.41,0,0.595,0,0,,
500,345.30,1,39.97,1,0.937,1,1,,
501,257.50,1,41.49,1,1.065,1,1,,
502,229.60,1,40.26,1,0.906,1,1,,
503,211.20,1,40.02,1,1.028,1,1,,
504,313.00,1,40.84,1,1.249,1,1,,
505,197.10,1,39.66,1,1.194,1,1,,
506,203.30,1,38.48,1,1.234,1,1,,
507,362.90,1,37.72,1,0.981,1,1,,
508,443.10,1,41.23,1,1.152,1,1,,
509,212.50,1,38.32,1,1.216,1,1,,
510,383.30,1,38.51,1,1.18,1,1,,
511,363.80,1,39.79,1,1.202,1,1,,
512,429.20,1,41.11,1,0.853,1,1,,
513,294.60,1,40.94,1,1.13,1,1,,
514,179.70,1,40.51,1,1.144,1,1,,
515,394.70,1,41.34,1,1.009,1,1,,
516,466.30,1,38.55,1,1.237,1,1,,
517,480.40,1,38.62,1,0.956,1,1,,
518,401.70,1,39.67,1,1.079,1,1,,
519,325.10,1,40.73,1,0.996,1,1,,
520,324.00,1,41.26,1,1.22,1,1,,
521,211.00,1,40.96,1,0.988,1,1,,
522,465.20,1,39.13,1,1.165,1,1,,
523,264.10,1,38.3,1,0.892,1,1,,
524,363.90,1,39.47,1,1.198,1,1,,
525,264.60,1,38.29,1,1.093,1,1,,
526,243.40,1,38,1,1.019,1,1,,
527,387.40,1,40.02,1,0.906,1,1,,
528,460.20,1,38.42,1,1.046,1,1,,
529,485.70,1,38.98,1,1.105,1,1,,
530,213.00,1,41.21,1,0.945,1,1,,
531,235.30,1,40.31,1,1.223,1,1,,
532,360.00,1,37.45,1,0.87,1,1,,
533,266.00,1,38.46,1,1.256,1,1,,
534,316.20,1,40.01,1,1.146,1,1,,
535,157.90,1,41.58,1,1.104,1,1,,
536,219.00,1,40.29,1,1.27,1,1,,
537,205.50,1,37.65,1,1.226,1,1,,
538,332.20,1,37.76,1,1.157,1,1,,
539,486.20,1,37.97,1,0.963,1,1,,
540,280.80,1,38.84,1,0.899,1,1,,
541,468.90,1,39.7,1,0.919,1,1,,
542,269.90,1,39.75,1,0.869,1,1,,
543,496.90,1,40.08,1,0.941,1,1,,
544,285.30,1,39.75,1,1.171,1,1,,
545,166.60,1,38.12,1,0.867,1,1,,
546,442.80,1,41.18,1,1.216,1,1,,
547,366.10,1,39.44,1,0.978,1,1,,
548,162.70,1,41.44,1,0.932,1,1,,
549,346.30,1,37.8,1,0.936,1,1,,
550,318.00,1,41.08,1,1.15,1,1,,
551,292.10,1,37.91,1,1.268,1,1,,
552,235.70,1,40.52,1,1.024,1,1,,
553,265.20,1,41.14,1,1.064,1,1,,
554,340.00,1,38.24,1,0.961,1,1,,
555,187.00,1,40.09,1,1.3,1,1,,
556,392.00,1,38.84,1,0.888,1,1,,
557,451.50,1,39.87,1,0.843,1,1,,
558,416.40,1,38.29,1,0.86,1,1,,
559,239.70,1,38.59,1,1.006,1,1,,
560,189.30,1,38.26,1,0.891,1,1,,
561,230.80,1,37.58,1,1.067,1,1,,
562,196.10,1,39.31,1,1.075,1,1,,
563,299.20,1,37.47,1,0.841,1,1,,
564,272.70,1,41.29,1,1.117,1,1,,
565,205.50,1,37.62,1,1.04,1,1,,
566,182.60,1,39.7,1,1.268,1,1,,
567,491.80,1,37.35,1,1.229,1,1,,
568,460.90,1,40.84,1,0.933,1,1,,
569,323.00,1,38.42,1,1.062,1,1,,
570,223.70,1,39.87,1,1.26,1,1,,
571,162.30,1,38.99,1,1.107,1,1,,
572,387.60,1,40.72,1,1.017,1,1,,
573,321.90,1,37.99,1,1.275,1,1,,
574,493.50,1,39.53,1,1.272,1,1,,
575,417.00,1,40.23,1,1.288,1,1,,
576,200.80,1,38.81,1,0.994,1,1,,
577,228.60,1,39.29,1,1.273,1,1,,
578,180.90,1,39.91,1,1.271,1,1,,
579,287.00,1,38.67,1,1.163,1,1,,
580,370.40,1,40.61,1,1.29,1,1,,
581,326.20,1,37.71,1,1.195,1,1,,
582,487.80,1,40.88,1,1.229,1,1,,
583,461.00,1,38.92,1,0.989,1,1,,
584,311.10,1,38.97,1,0.825,1,1,,
585,393.50,1,39.22,1,0.895,1,1,,
586,312.50,1,39.75,1,1.176,1,1,,
587,494.20,1,40.97,1,1.215,1,1,,
588,302.50,1,39.12,1,1.2,1,1,,
589,481.70,1,38.57,1,1.087,1,1,,
590,261.20,1,39.66,1,0.853,1,1,,
591,492.00,1,38.23,1,0.856,1,1,,
592,220.10,1,37.91,1,1.144,1,1,,
593,192.90,1,41.41,1,0.815,1,1,,
594,488.40,1,39.72,1,0.858,1,1,,
595,396.50,1,40.46,1,1.012,1,1,,
596,357.70,1,37.77,1,0.975,1,1,,
597,279.00,1,38.79,1,0.96,1,1,,
598,171.60,1,39.06,1,1.164,1,1,,
599,426.60,1,40.66,1,1.105,1,1,,
600,352.30,1,37.39,1,1.237,1,1,,
601,448.90,1,37.88,1,1.095,1,1,,
602,244.50,1,39.41,1,1.216,1,1,,
603,192.70,1,40.12,1,1.18,1,1,,
604,219.80,1,38.3,1,1.125,1,1,,
605,269.90,1,38.96,1,1.046,1,1,,
606,205.60,1,40.5,1,1.034,1,1,,
607,218.30,1,39.25,1,0.953,1,1,,
608,439.60,1,38.41,1,1.196,1,1,,
609,352.60,1,38.78,1,0.988,1,1,,
610,153.90,1,40.81,1,1.128,1,1,,
611,252.90,1,40.17,1,0.903,1,1,,
612,173.20,1,40.77,1,0.85,1,1,,
613,324.50,1,40.7,1,0.841,1,1,,
614,413.30,1,40.63,1,1.083,1,1,,
615,314.60,1,37.39,1,1.158,1,1,,
616,467.90,1,41.32,1,0.91,1,1,,
617,493.40,1,39.3,1,0.813,1,1,,
618,254.90,1,38.49,1,1.111,1,1,,
619,364.80,1,37.35,1,1.248,1,1,,
620,236.20,1,38.7,1,0.831,1,1,,
621,341.50,1,37.46,1,0.938,1,1,,
622,292.00,1,40.46,1,0.935,1,1,,
623,483.20,1,37.95,1,0.929,1,1,,
624,201.60,1,40.4,1,0.861,1,1,,
625,231.80,1,39.45,1,0.868,1,1,,
626,236.70,1,38.06,1,1.121,1,1,,
627,261.40,1,40.54,1,1.007,1,1,,
628,276.80,1,41.21,1,1.007,1,1,,
629,277.70,1,41.5,1,0.814,1,1,,
630,301.70,1,38.33,1,0.962,1,1,,
631,476.00,1,41.38,1,0.81,1,1,,
632,388.20,1,39.83,1,0.917,1,1,,
633,464.60,1,39.27,1,1.172,1,1,,
634,227.60,1,38.31,1,0.821,1,1,,
635,225.40,1,38.7,1,0.814,1,1,,
636,488.10,1,39.09,1,1.028,1,1,,
637,489.20,1,38.38,1,1.138,1,1,,
638,347.60,1,38.78,1,1.043,1,1,,
639,294.30,1,38.17,1,1.229,1,1,,
640,338.40,1,41.29,1,1.145,1,1,,
641,155.80,1,40.12,1,1.273,1,1,,
642,433.30,1,41.38,1,1.122,1,1,,
643,409.40,1,40.97,1,1.203,1,1,,
644,439.70,1,37.78,1,0.836,1,1,,
645,498.20,1,38.51,1,0.842,1,1,,
646,492.20,1,39.67,1,1.238,1,1,,
647,389.10,1,41.08,1,1.233,1,1,,
648,314.60,1,38.96,1,1.175,1,1,,
649,477.70,1,39.96,1,0.904,1,1,,
650,364.80,1,38.32,1,1.179,1,1,,
651,329.50,1,40.87,1,0.932,1,1,,
652,203.20,1,40.04,1,0.813,1,1,,
653,378.40,1,39.97,1,0.892,1,1,,
654,168.40,1,38.16,1,1.007,1,1,,
655,175.30,1,38.15,1,0.829,1,1,,
656,277.20,1,38.89,1,1.029,1,1,,
657,458.80,1,41.38,1,1.088,1,1,,
658,436.50,1,39.07,1,0.812,1,1,,
659,185.90,1,41.39,1,0.902,1,1,,
660,465.20,1,39.09,1,0.813,1,1,,
661,208.30,1,40.89,1,1.013,1,1,,
662,210.40,1,37.89,1,1.278,1,1,,
663,357.10,1,38.42,1,0.801,1,1,,
664,248.50,1,38.29,1,1.103,1,1,,
665,404.60,1,39.78,1,0.915,1,1,,
666,158.80,1,40.44,1,0.848,1,1,,
667,254.10,1,38.94,1,0.874,1,1,,
668,288.20,1,38.15,1,1.225,1,1,,
669,156.70,1,40.85,1,0.832,1,1,,
670,418.20,1,40.64,1,0.829,1,1,,
671,257.00,1,41.07,1,1.038,1,1,,
672,244.40,1,40.61,1,1.197,1,1,,
673,443.60,1,37.49,1,1.158,1,1,,
674,260.90,1,38.51,1,1.179,1,1,,
675,337.50,1,39.92,1,1.295,1,1,,
676,370.60,1,39.09,1,1.22,1,1,,
677,437.00,1,41.39,1,0.953,1,1,,
678,441.10,1,40.39,1,1.213,1,1,,
679,405.10,1,40.51,1,1.013,1,1,,
680,367.10,1,39.22,1,0.871,1,1,,
681,393.10,1,38.6,1,0.95,1,1,,
682,496.10,1,38.01,1,1.191,1,1,,
683,191.80,1,38.41,1,1.282,1,1,,
684,240.20,1,37.53,1,0.981,1,1,,
685,238.70,1,39.37,1,1.238,1,1,,
686,427.50,1,39.09,1,1.042,1,1,,
687,164.50,1,38.34,1,1.216,1,1,,
688,231.40,1,38.27,1,0.954,1,1,,
689,208.00,1,39.57,1,1.253,1,1,,
690,185.40,1,38.59,1,0.879,1,1,,
691,341.90,1,40.9,1,1.153,1,1,,
692,203.70,1,40.65,1,1.124,1,1,,
693,216.80,1,37.58,1,1.277,1,1,,
694,262.80,1,39.41,1,0.821,1,1,,
695,329.40,1,39.46,1,1.175,1,1,,
696,407.00,1,39.38,1,0.853,1,1,,
697,323.50,1,39.98,1,1.002,1,1,,
698,412.00,1,40.29,1,0.996,1,1,,
699,304.50,1,37.9,1,1.038,1,1,,
700,320.20,1,39.09,1,1.077,1,1,,
701,302.50,1,38.02,1,1.043,1,1,,
702,169.40,1,41.03,1,0.816,1,1,,
703,266.50,1,40.62,1,1.199,1,1,,
704,321.00,1,39.27,1,1.175,1,1,,
705,289.20,1,37.98,1,1.216,1,1,,
706,171.90,1,40.4,1,0.985,1,1,,
707,348.50,1,38.09,1,0.852,1,1,,
708,497.90,1,41.11,1,0.904,1,1,,
709,164.80,1,40.09,1,1.005,1,1,,
710,304.40,1,38.54,1,1.095,1,1,,
711,301.80,1,40.95,1,0.892,1,1,,
712,214.20,1,38.93,1,1.209,1,1,,
713,325.90,1,37.72,1,1.161,1,1,,
714,275.90,1,40.43,1,1.112,1,1,,
715,213.60,1,39.02,1,1.201,1,1,,
716,188.80,1,40.15,1,1.174,1,1,,
717,254.20,1,38.14,1,0.887,1,1,,
718,394.90,1,39.93,1,1.12,1,1,,
719,475.30,1,40.35,1,1.07,1,1,,
720,161.00,1,41.18,1,0.839,1,1,,
721,261.50,1,38.54,1,1.086,1,1,,
722,264.80,1,39.8,1,0.973,1,1,,
723,316.60,1,40.88,1,1.001,1,1,,
724,352.90,1,41.17,1,0.817,1,1,,
725,318.50,1,38.01,1,1.291,1,1,,
726,177.40,1,41.2,1,0.958,1,1,,
727,155.90,1,41.23,1,1.163,1,1,,
728,244.60,1,38.62,1,0.807,1,1,,
729,288.50,1,37.36,1,0.816,1,1,,
730,315.50,1,40.87,1,1.146,1,1,,
731,175.90,1,37.52,1,1.059,1,1,,
732,424.10,1,40.42,1,1.111,1,1,,
733,186.70,1,39.51,1,1.053,1,1,,
734,394.10,1,37.5,1,0.904,1,1,,
735,250.00,1,40.58,1,1.043,1,1,,
736,390.80,1,38.26,1,0.832,1,1,,
737,345.70,1,40.39,1,1.204,1,1,,
738,340.60,1,40.34,1,1.173,1,1,,
739,362.60,1,39.19,1,0.807,1,1,,
740,318.40,1,41.02,1,1.121,1,1,,
741,419.90,1,38.69,1,1,1,1,,
742,323.90,1,40.72,1,1.081,1,1,,
743,478.70,1,40.88,1,1.106,1,1,,
744,416.90,1,38.9,1,1.294,1,1,,
745,241.90,1,39.19,1,1.141,1,1,,
746,412.30,1,38.23,1,0.842,1,1,,
747,246.50,1,39.83,1,1.019,1,1,,
748,447.70,1,39.97,1,1.146,1,1,,
749,255.60,1,40.48,1,0.88,1,1,,
750,-288.10,1,39.32,1,1.264,1,1,,
751,-354.80,1,38.15,1,0.889,1,1,,
752,-268.40,1,37.4,1,1.095,1,1,,
753,-492.90,1,37.54,1,1.101,1,1,,
754,-338.70,1,37.46,1,1.016,1,1,,
755,-214.00,1,38.14,1,1.22,1,1,,
756,-159.10,1,41.03,1,1.195,1,1,,
757,-495.60,1,39.37,1,1.248,1,1,,
758,-204.20,1,39.86,1,0.82,1,1,,
759,-494.80,1,41.6,1,0.992,1,1,,
760,-352.90,1,40.86,1,1.186,1,1,,
761,-170.40,1,40.41,1,1.052,1,1,,
762,-364.60,1,37.4,1,0.894,1,1,,
763,-314.60,1,40.12,1,0.961,1,1,,
764,-243.90,1,37.35,1,1.137,1,1,,
765,-273.40,1,41.24,1,1.012,1,1,,
766,-325.70,1,38.35,1,0.939,1,1,,
767,-232.50,1,40.23,1,1.112,1,1,,
768,-157.10,1,38.12,1,1.085,1,1,,
769,-343.50,1,39.45,1,1.22,1,1,,
770,-297.40,1,37.35,1,1.283,1,1,,
771,-479.70,1,39.45,1,0.835,1,1,,
772,-293.50,1,39.56,1,1.211,1,1,,
773,-268.70,1,37.92,1,1.195,1,1,,
774,-219.30,1,40.36,1,0.854,1,1,,
775,-412.20,1,40.18,1,1.21,1,1,,
776,-315.50,1,38.7,1,1.299,1,1,,
777,-265.00,1,40.48,1,1.058,1,1,,
778,-397.80,1,39.97,1,0.807,1,1,,
779,-244.00,1,39.98,1,1.262,1,1,,
780,-228.40,1,38.27,1,1.206,1,1,,
781,-193.00,1,39.51,1,1.187,1,1,,
782,-438.60,1,40.34,1,1.269,1,1,,
783,-373.10,1,37.43,1,0.849,1,1,,
784,-271.00,1,40.1,1,1.014,1,1,,
785,-383.30,1,40.21,1,1.069,1,1,,
786,-202.10,1,38.35,1,1.182,1,1,,
787,-274.00,1,38.95,1,1.145,1,1,,
788,-256.70,1,39.7,1,1.022,1,1,,
789,-270.20,1,39.56,1,1.115,1,1,,
790,-333.10,1,38.36,1,1.189,1,1,,
791,-218.30,1,38.56,1,1.254,1,1,,
792,-358.30,1,37.72,1,1.017,1,1,,
793,-199.80,1,41.18,1,0.967,1,1,,
794,-330.90,1,40.32,1,1.282,1,1,,
795,-160.50,1,40.92,1,1.284,1,1,,
796,-458.40,1,39.78,1,0.906,1,1,,
797,-427.90,1,41.05,1,1.128,1,1,,
798,-209.00,1,39.39,1,1.159,1,1,,
799,-227.70,1,41.55,1,0.88,1,1,,
800,-256.20,1,35.28,1,0.856,1,1,,
801,-168.50,1,34.98,1,1.285,1,1,,
802,-346.20,1,30.77,1,1.014,1,1,,
803,-324.60,1,33.55,1,1.205,1,1,,
804,-229.40,1,35.18,1,1.264,1,1,,
805,-443.40,1,33.47,1,1.168,1,1,,
806,-350.70,1,35.87,1,0.884,1,1,,
807,-205.30,1,28.18,1,1.007,1,1,,
808,-497.70,1,34.15,1,1.175,1,1,,
809,-230.50,1,35.36,1,1.167,1,1,,
810,-464.30,1,29.46,1,1.016,1,1,,
811,-357.60,1,29.51,1,1.172,1,1,,
812,-242.00,1,33.79,1,1.204,1,1,,
813,-302.20,1,29.13,1,1.281,1,1,,
814,-365.30,1,35.89,1,0.834,1,1,,
815,-493.40,1,34.48,1,1.284,1,1,,
816,-255.40,1,33.82,1,1.281,1,1,,
817,-386.80,1,30.01,1,1,1,1,,
818,-220.10,1,31.94,1,0.991,1,1,,
819,-494.20,1,32.33,1,1.247,1,1,,
820,-454.90,1,29.68,1,1.072,1,1,,
821,-374.60,1,30.45,1,1.032,1,1,,
822,-343.20,1,33.11,1,0.837,1,1,,
823,-151.50,1,32.56,1,1.087,1,1,,
824,-351.20,1,31.3,1,1.229,1,1,,
825,-251.60,1,33.98,1,0.942,1,1,,
826,-317.10,1,34.8,1,0.958,1,1,,
827,-263.10,1,35.56,1,0.813,1,1,,
828,-233.40,1,30.53,1,0.987,1,1,,
829,-171.80,1,32.43,1,0.851,1,1,,
830,-393.50,1,31.71,1,1.137,1,1,,
831,-428.40,1,29.23,1,0.859,1,1,,
832,-398.30,1,30.14,1,1.238,1,1,,
833,-442.10,1,32.22,1,1.047,1,1,,
834,-299.20,1,33.56,1,0.802,1,1,,
835,-308.10,1,28.66,1,1.131,1,1,,
836,-452.00,1,30.74,1,1.189,1,1,,
837,-371.40,1,33.31,1,1.045,1,1,,
838,-230.30,1,34.09,1,1.015,1,1,,
839,-487.40,1,28.48,1,0.873,1,1,,
840,-453.80,1,30.06,1,0.932,1,1,,
841,-442.70,1,29.82,1,1.094,1,1,,
842,-282.00,1,31.25,1,1.157,1,1,,
843,-304.20,1,34.17,1,0.814,1,1,,
844,-376.30,1,31.47,1,1.069,1,1,,
845,-160.20,1,32.2,1,1.217,1,1,,
846,-410.70,1,33.04,1,1.186,1,1,,
847,-193.10,1,33.31,1,1.189,1,1,,
848,-192.00,1,33.91,1,0.901,1,1,,
849,-344.80,1,31.32,1,1.276,1,1,,
850,-278.50,1,31.02,1,0.955,1,1,,
851,-193.20,1,34.89,1,1.13,1,1,,
852,-332.70,1,32.74,1,1.204,1,1,,
853,-394.50,1,30.51,1,0.904,1,1,,
854,-163.60,1,34.45,1,0.936,1,1,,
855,-492.60,1,33.11,1,1.132,1,1,,
856,-485.10,1,32.71,1,1.234,1,1,,
857,-324.40,1,31.16,1,0.931,1,1,,
858,-487.40,1,33.51,1,0.985,1,1,,
859,-295.90,1,34.53,1,0.994,1,1,,
860,-278.10,1,30.16,1,0.821,1,1,,
861,-197.90,1,35.18,1,0.939,1,1,,
862,-247.40,1,28.17,1,1.045,1,1,,
863,-162.70,1,30.47,1,1.105,1,1,,
864,-347.00,1,30.11,1,1.088,1,1,,
865,-390.80,1,34.33,1,1.01,1,1,,
866,-302.80,1,29.17,1,0.926,1,1,,
867,-200.90,1,34.79,1,0.932,1,1,,
868,-365.40,1,31.52,1,0.89,1,1,,
869,-306.10,1,28.43,1,1.052,1,1,,
870,-164.40,1,29.5,1,0.851,1,1,,
871,-247.20,1,28.13,1,1.009,1,1,,
872,-215.90,1,28.1,1,0.925,1,1,,
873,-442.80,1,32.04,1,0.868,1,1,,
874,-318.40,1,32.73,1,1.131,1,1,,
875,-421.20,1,35.19,1,0.897,1,1,,
876,-455.90,1,30.66,1,0.976,1,1,,
877,-365.50,1,29.41,1,1.164,1,1,,
878,-312.40,1,31.85,1,1.237,1,1,,
879,-271.70,1,32.57,1,0.982,1,1,,
880,-374.40,1,31.23,1,0.806,1,1,,
881,-412.50,1,32.69,1,0.88,1,1,,
882,-263.20,1,32.31,1,1.122,1,1,,
883,-327.20,1,30.71,1,0.891,1,1,,
884,-212.70,1,28.71,1,0.826,1,1,,
885,-465.30,1,31.42,1,1.161,1,1,,
886,-474.60,1,29.21,1,0.983,1,1,,
887,-214.00,1,34.57,1,1.214,1,1,,
888,-225.00,1,32.98,1,1.147,1,1,,
889,-465.30,1,28.54,1,0.934,1,1,,
890,-306.80,1,32.1,1,0.977,1,1,,
891,-389.40,1,34.61,1,1.113,1,1,,
892,-305.50,1,34.63,1,1.284,1,1,,
893,-282.50,1,33.27,1,0.973,1,1,,
894,-203.10,1,31.8,1,1.18,1,1,,
895,-412.70,1,32.23,1,0.916,1,1,,
896,-396.50,1,28.28,1,0.903,1,1,,
897,-409.60,1,28.22,1,0.818,1,1,,
898,-210.00,1,32.76,1,1.154,1,1,,
899,-197.80,1,34.6,1,0.95,1,1,,
900,-216.10,1,31.45,1,1.027,1,1,,
901,-296.10,1,32.79,1,1.218,1,1,,
902,-493.10,1,28.21,1,1.019,1,1,,
903,-219.90,1,28.81,1,0.988,1,1,,
904,-443.90,1,32.3,1,0.838,1,1,,
905,-474.00,1,32.04,1,1.212,1,1,,
906,-363.40,1,29.33,1,0.839,1,1,,
907,-205.30,1,29.68,1,0.991,1,1,,
908,-420.40,1,34.95,1,0.852,1,1,,
909,-445.20,1,28.21,1,0.991,1,1,,
910,-157.40,1,32.44,1,0.892,1,1,,
911,-252.10,1,32.96,1,0.853,1,1,,
912,-201.70,1,28.47,1,0.986,1,1,,
913,-160.10,1,28.36,1,0.942,1,1,,
914,-356.10,1,29.29,1,1.079,1,1,,
915,-267.30,1,29.85,1,0.869,1,1,,
916,-205.30,1,35.01,1,1.133,1,1,,
917,-304.30,1,28.22,1,1.1,1,1,,
918,-247.10,1,34.6,1,0.994,1,1,,
919,-231.80,1,29.59,1,1.214,1,1,,
920,-443.80,1,28.62,1,0.831,1,1,,
921,-495.30,1,31.1,1,0.835,1,1,,
922,-286.60,1,32.92,1,1.228,1,1,,
923,-237.80,1,31.15,1,1.179,1,1,,
924,-393.60,1,31.63,1,1.111,1,1,,
925,-154.50,1,33.41,1,1.186,1,1,,
926,-285.20,1,28.79,1,0.891,1,1,,
927,-340.40,1,35.43,1,1.111,1,1,,
928,-462.10,1,33.69,1,0.894,1,1,,
929,-477.60,1,29.81,1,0.811,1,1,,
930,-413.00,1,31.66,1,0.971,1,1,,
931,-326.90,1,34.97,1,1.21,1,1,,
932,-306.60,1,35.45,1,1.15,1,1,,
933,-396.60,1,32.76,1,0.815,1,1,,
934,-463.60,1,29.49,1,1.276,1,1,,
935,-471.70,1,35.31,1,1.018,1,1,,
936,-415.70,1,32.41,1,1.159,1,1,,
937,-281.80,1,34.38,1,0.944,1,1,,
938,-183.60,1,35.54,1,1.3,1,1,,
939,-498.40,1,34.34,1,1.021,1,1,,
940,-253.40,1,32.5,1,1.191,1,1,,
941,-322.50,1,29.96,1,0.941,1,1,,
942,-362.70,1,35.23,1,1.078,1,1,,
943,-470.70,1,33.61,1,0.848,1,1,,
944,-246.40,1,34.69,1,0.929,1,1,,
945,-222.40,1,32.15,1,1.215,1,1,,
946,-305.20,1,32.95,1,1.29,1,1,,
947,-159.20,1,30.81,1,0.865,1,1,,
948,-395.10,1,31.82,1,0.898,1,1,,
949,-297.80,1,32.66,1,0.996,1,1,,
950,-170.40,1,34.54,1,1.243,1,1,,
951,-290.50,1,34.49,1,1.085,1,1,,
952,-472.30,1,33.13,1,1.23,1,1,,
953,-233.40,1,31.28,1,1.118,1,1,,
954,-401.00,1,35.1,1,0.878,1,1,,
955,-404.20,1,31.92,1,0.869,1,1,,
956,-212.50,1,29.9,1,1.216,1,1,,
957,-488.30,1,34.44,1,0.93,1,1,,
958,-363.00,1,30.16,1,1.055,1,1,,
959,-239.40,1,33.13,1,1.072,1,1,,
960,-314.50,1,32.85,1,1.244,1,1,,
961,-396.00,1,34.85,1,0.843,1,1,,
962,-388.10,1,30.11,1,1.194,1,1,,
963,-436.50,1,34.45,1,1.196,1,1,,
964,-418.20,1,32.65,1,0.957,1,1,,
965,-266.60,1,32.56,1,0.949,1,1,,
966,-268.70,1,30.49,1,1.147,1,1,,
967,-263.60,1,31.39,1,1,1,1,,
968,-311.80,1,34.22,1,1.146,1,1,,
969,-333.80,1,34.56,1,0.905,1,1,,
970,-233.40,1,35.39,1,0.843,1,1,,
971,-322.40,1,28.78,1,1.02,1,1,,
972,-443.10,1,35.56,1,0.961,1,1,,
973,-317.20,1,35.41,1,0.853,1,1,,
974,-360.30,1,28.64,1,1.126,1,1,,
975,-360.30,1,35.88,1,1.223,1,1,,
976,-265.30,1,32.43,1,1.258,1,1,,
977,-213.10,1,30.26,1,0.823,1,1,,
978,-262.90,1,34.87,1,1.241,1,1,,
979,-314.80,1,31.75,1,1.154,1,1,,
980,-155.60,1,29.14,1,0.937,1,1,,
981,-220.60,1,28.02,1,1.229,1,1,,
982,-331.50,1,31.07,1,1.231,1,1,,
983,-231.10,1,29.71,1,1.114,1,1,,
984,-383.30,1,35.21,1,1.017,1,1,,
985,-171.50,1,29.08,1,1.141,1,1,,
986,-338.70,1,35.16,1,1.186,1,1,,
987,-343.20,1,30.62,1,1.017,1,1,,
988,-445.20,1,34.4,1,1.264,1,1,,
989,-356.50,1,29.43,1,1.108,1,1,,
990,-499.80,1,32.38,1,0.962,1,1,,
991,-162.40,1,35.06,1,1.15,1,1,,
992,-226.90,1,34.31,1,1.24,1,1,,
993,-151.80,1,29.44,1,0.887,1,1,,
994,-379.60,1,30.79,1,1.18,1,1,,
995,-151.50,1,33.43,1,1.177,1,1,,
996,-386.30,1,30.68,1,1.156,1,1,,
997,-377.20,1,31.2,1,1.036,1,1,,
998,-466.80,1,31.52,1,0.925,1,1,,
999,-248.20,1,34.67,1,1.183,1,1,,
1000,-186.70,1,30.73,1,1.036,1,1,,